==== Anchor Angles ====

=== Testing 2220 angles ===
          angle(rad)             std cos             std sin           btrig cos           btrig sin              dd cos              dd sin
      0.000000000000      1.000000000000      0.000000000000      1.000000000000      0.000000000000      1.000000000000     -0.000000000000
      0.002830263652      0.999995994807      0.002830259873      0.999995994807      0.002830259873      0.999995994807      0.002830259873
      0.005660527304      0.999983979258      0.005660497075      0.999983979258      0.005660497075      0.999983979258      0.005660497075
      0.008490790956      0.999963953451      0.008490688934      0.999963953451      0.008490688934      0.999963953451      0.008490688934
      0.011321054608      0.999935917546      0.011320812780      0.999935917546      0.011320812780      0.999935917546      0.011320812780
      0.014151318259      0.999899871767      0.014150845941      0.999899871767      0.014150845941      0.999899871767      0.014150845941
      0.016981581911      0.999855816403      0.016980765748      0.999855816403      0.016980765748      0.999855816403      0.016980765748
      0.019811845563      0.999803751807      0.019810549533      0.999803751807      0.019810549533      0.999803751807      0.019810549533
      0.022642109215      0.999743678396      0.022640174628      0.999743678396      0.022640174628      0.999743678396      0.022640174628
      0.025472372867      0.999675596651      0.025469618366      0.999675596651      0.025469618366      0.999675596651      0.025469618366
      0.028302636519      0.999599507118      0.028298858083      0.999599507118      0.028298858083      0.999599507118      0.028298858083
      0.031132900171      0.999515410406      0.031127871115      0.999515410406      0.031127871115      0.999515410406      0.031127871115
      0.033963163823      0.999423307189      0.033956634801      0.999423307189      0.033956634801      0.999423307189      0.033956634801
      0.036793427474      0.999323198205      0.036785126481      0.999323198205      0.036785126481      0.999323198205      0.036785126481
      0.039623691126      0.999215084254      0.039613323497      0.999215084254      0.039613323497      0.999215084254      0.039613323497
      0.042453954778      0.999098966205      0.042441203196      0.999098966205      0.042441203196      0.999098966205      0.042441203196
      0.045284218430      0.998974844986      0.045268742924      0.998974844986      0.045268742924      0.998974844986      0.045268742924
      0.048114482082      0.998842721591      0.048095920033      0.998842721591      0.048095920033      0.998842721591      0.048095920033
      0.050944745734      0.998702597081      0.050922711874      0.998702597081      0.050922711874      0.998702597081      0.050922711874
      0.053775009386      0.998554472575      0.053749095804      0.998554472575      0.053749095804      0.998554472575      0.053749095804
      0.056605273038      0.998398349262      0.056575049184      0.998398349262      0.056575049184      0.998398349262      0.056575049184
      0.059435536690      0.998234228392      0.059400549375      0.998234228392      0.059400549375      0.998234228392      0.059400549375
      0.062265800341      0.998062111280      0.062225573745      0.998062111280      0.062225573745      0.998062111280      0.062225573745
      0.065096063993      0.997881999303      0.065050099664      0.997881999303      0.065050099664      0.997881999303      0.065050099664
      0.067926327645      0.997693893906      0.067874104507      0.997693893906      0.067874104507      0.997693893906      0.067874104507
      0.070756591297      0.997497796594      0.070697565652      0.997497796594      0.070697565652      0.997497796594      0.070697565652
      0.073586854949      0.997293708940      0.073520460482      0.997293708940      0.073520460482      0.997293708940      0.073520460482
      0.076417118601      0.997081632576      0.076342766385      0.997081632576      0.076342766385      0.997081632576      0.076342766385
      0.079247382253      0.996861569203      0.079164460752      0.996861569203      0.079164460752      0.996861569203      0.079164460752
      0.082077645905      0.996633520583      0.081985520982      0.996633520583      0.081985520982      0.996633520583      0.081985520982
      0.084907909556      0.996397488543      0.084805924476      0.996397488543      0.084805924476      0.996397488543      0.084805924476
      0.087738173208      0.996153474973      0.087625648641      0.996153474973      0.087625648641      0.996153474973      0.087625648641
      0.090568436860      0.995901481828      0.090444670891      0.995901481828      0.090444670891      0.995901481828      0.090444670891
      0.093398700512      0.995641511127      0.093262968645      0.995641511127      0.093262968645      0.995641511127      0.093262968645
      0.096228964164      0.995373564952      0.096080519325      0.995373564952      0.096080519325      0.995373564952      0.096080519325
      0.099059227816      0.995097645450      0.098897300364      0.995097645450      0.098897300364      0.995097645450      0.098897300364
      0.101889491468      0.994813754831      0.101713289197      0.994813754831      0.101713289197      0.994813754831      0.101713289197
      0.104719755120      0.994521895368      0.104528463268      0.994521895368      0.104528463268      0.994521895368      0.104528463268
      0.107550018772      0.994222069400      0.107342800025      0.994222069400      0.107342800025      0.994222069400      0.107342800025
      0.110380282423      0.993914279329      0.110156276924      0.993914279329      0.110156276924      0.993914279329      0.110156276924
      0.113210546075      0.993598527620      0.112968871429      0.993598527620      0.112968871429      0.993598527620      0.112968871429
      0.116040809727      0.993274816802      0.115780561010      0.993274816802      0.115780561010      0.993274816802      0.115780561010
      0.118871073379      0.992943149468      0.118591323143      0.992943149468      0.118591323143      0.992943149468      0.118591323143
      0.121701337031      0.992603528275      0.121401135315      0.992603528275      0.121401135315      0.992603528275      0.121401135315
      0.124531600683      0.992255955944      0.124209975016      0.992255955944      0.124209975016      0.992255955944      0.124209975016
      0.127361864335      0.991900435259      0.127017819747      0.991900435259      0.127017819747      0.991900435259      0.127017819747
      0.130192127987      0.991536969067      0.129824647016      0.991536969067      0.129824647016      0.991536969067      0.129824647016
      0.133022391638      0.991165560281      0.132630434340      0.991165560281      0.132630434340      0.991165560281      0.132630434340
      0.135852655290      0.990786211875      0.135435159242      0.990786211875      0.135435159242      0.990786211875      0.135435159242
      0.138682918942      0.990398926888      0.138238799257      0.990398926888      0.138238799257      0.990398926888      0.138238799257
      0.141513182594      0.990003708422      0.141041331925      0.990003708422      0.141041331925      0.990003708422      0.141041331925
      0.144343446246      0.989600559643      0.143842734797      0.989600559643      0.143842734797      0.989600559643      0.143842734797
      0.147173709898      0.989189483781      0.146642985434      0.989189483781      0.146642985434      0.989189483781      0.146642985434
      0.150003973550      0.988770484128      0.149442061404      0.988770484128      0.149442061404      0.988770484128      0.149442061404
      0.152834237202      0.988343564041      0.152239940284      0.988343564041      0.152239940284      0.988343564041      0.152239940284
      0.155664500854      0.987908726940      0.155036599664      0.987908726940      0.155036599664      0.987908726940      0.155036599664
      0.158494764505      0.987465976308      0.157832017141      0.987465976308      0.157832017141      0.987465976308      0.157832017141
      0.161325028157      0.987015315691      0.160626170322      0.987015315691      0.160626170322      0.987015315691      0.160626170322
      0.164155291809      0.986556748699      0.163419036826      0.986556748699      0.163419036826      0.986556748699      0.163419036826
      0.166985555461      0.986090279006      0.166210594279      0.986090279006      0.166210594279      0.986090279006      0.166210594279
      0.169815819113      0.985615910348      0.169000820322      0.985615910348      0.169000820322      0.985615910348      0.169000820322
      0.172646082765      0.985133646525      0.171789692602      0.985133646525      0.171789692602      0.985133646525      0.171789692602
      0.175476346417      0.984643491400      0.174577188781      0.984643491400      0.174577188781      0.984643491400      0.174577188781
      0.178306610069      0.984145448901      0.177363286529      0.984145448901      0.177363286529      0.984145448901      0.177363286529
      0.181136873720      0.983639523015      0.180147963528      0.983639523015      0.180147963528      0.983639523015      0.180147963528
      0.183967137372      0.983125717796      0.182931197472      0.983125717796      0.182931197472      0.983125717796      0.182931197472
      0.186797401024      0.982604037359      0.185712966067      0.982604037359      0.185712966067      0.982604037359      0.185712966067
      0.189627664676      0.982074485884      0.188493247029      0.982074485884      0.188493247029      0.982074485884      0.188493247029
      0.192457928328      0.981537067612      0.191272018087      0.981537067612      0.191272018087      0.981537067612      0.191272018087
      0.195288191980      0.980991786849      0.194049256982      0.980991786849      0.194049256982      0.980991786849      0.194049256982
      0.198118455632      0.980438647961      0.196824941468      0.980438647961      0.196824941468      0.980438647961      0.196824941468
      0.200948719284      0.979877655381      0.199599049309      0.979877655381      0.199599049309      0.979877655381      0.199599049309
      0.203778982936      0.979308813601      0.202371558285      0.979308813601      0.202371558285      0.979308813601      0.202371558285
      0.206609246587      0.978732127179      0.205142446187      0.978732127179      0.205142446187      0.978732127179      0.205142446187
      0.209439510239      0.978147600734      0.207911690818      0.978147600734      0.207911690818      0.978147600734      0.207911690818
      0.212269773891      0.977555238948      0.210679269996      0.977555238948      0.210679269996      0.977555238948      0.210679269996
      0.215100037543      0.976955046566      0.213445161551      0.976955046566      0.213445161551      0.976955046566      0.213445161551
      0.217930301195      0.976347028396      0.216209343328      0.976347028396      0.216209343328      0.976347028396      0.216209343328
      0.220760564847      0.975731189308      0.218971793185      0.975731189308      0.218971793185      0.975731189308      0.218971793185
      0.223590828499      0.975107534237      0.221732488993      0.975107534237      0.221732488993      0.975107534237      0.221732488993
      0.226421092151      0.974476068176      0.224491408638      0.974476068176      0.224491408638      0.974476068176      0.224491408638
      0.229251355802      0.973836796185      0.227248530019      0.973836796185      0.227248530019      0.973836796185      0.227248530019
      0.232081619454      0.973189723385      0.230003831052      0.973189723385      0.230003831052      0.973189723385      0.230003831052
      0.234911883106      0.972534854958      0.232757289666      0.972534854958      0.232757289666      0.972534854958      0.232757289666
      0.237742146758      0.971872196150      0.235508883803      0.971872196150      0.235508883803      0.971872196150      0.235508883803
      0.240572410410      0.971201752270      0.238258591423      0.971201752270      0.238258591423      0.971201752270      0.238258591423
      0.243402674062      0.970523528689      0.241006390500      0.970523528689      0.241006390500      0.970523528689      0.241006390500
      0.246232937714      0.969837530838      0.243752259022      0.969837530838      0.243752259022      0.969837530838      0.243752259022
      0.249063201366      0.969143764213      0.246496174994      0.969143764213      0.246496174994      0.969143764213      0.246496174994
      0.251893465018      0.968442234372      0.249238116436      0.968442234372      0.249238116436      0.968442234372      0.249238116436
      0.254723728669      0.967732946933      0.251978061385      0.967732946933      0.251978061385      0.967732946933      0.251978061385
      0.257553992321      0.967015907580      0.254715987892      0.967015907580      0.254715987892      0.967015907580      0.254715987892
      0.260384255973      0.966291122054      0.257451874025      0.966291122054      0.257451874025      0.966291122054      0.257451874025
      0.263214519625      0.965558596163      0.260185697869      0.965558596163      0.260185697869      0.965558596163      0.260185697869
      0.266044783277      0.964818335774      0.262917437525      0.964818335774      0.262917437525      0.964818335774      0.262917437525
      0.268875046929      0.964070346816      0.265647071111      0.964070346816      0.265647071111      0.964070346816      0.265647071111
      0.271705310581      0.963314635282      0.268374576761      0.963314635282      0.268374576761      0.963314635282      0.268374576761
      0.274535574233      0.962551207225      0.271099932626      0.962551207225      0.271099932626      0.962551207225      0.271099932626
      0.277365837885      0.961780068760      0.273823116876      0.961780068760      0.273823116876      0.961780068760      0.273823116876
      0.280196101536      0.961001226065      0.276544107697      0.961001226065      0.276544107697      0.961001226065      0.276544107697
      0.283026365188      0.960214685378      0.279262883293      0.960214685378      0.279262883293      0.960214685378      0.279262883293
      0.285856628840      0.959420452999      0.281979421885      0.959420452999      0.281979421885      0.959420452999      0.281979421885
      0.288686892492      0.958618535292      0.284693701712      0.958618535292      0.284693701712      0.958618535292      0.284693701712
      0.291517156144      0.957808938679      0.287405701033      0.957808938679      0.287405701033      0.957808938679      0.287405701033
      0.294347419796      0.956991669646      0.290115398123      0.956991669646      0.290115398123      0.956991669646      0.290115398123
      0.297177683448      0.956166734739      0.292822771277      0.956166734739      0.292822771277      0.956166734739      0.292822771277
      0.300007947100      0.955334140567      0.295527798806      0.955334140567      0.295527798806      0.955334140567      0.295527798806
      0.302838210751      0.954493893798      0.298230459044      0.954493893798      0.298230459044      0.954493893798      0.298230459044
      0.305668474403      0.953646001164      0.300930730340      0.953646001164      0.300930730340      0.953646001164      0.300930730340
      0.308498738055      0.952790469457      0.303628591065      0.952790469457      0.303628591065      0.952790469457      0.303628591065
      0.311329001707      0.951927305529      0.306324019607      0.951927305529      0.306324019607      0.951927305529      0.306324019607
      0.314159265359      0.951056516295      0.309016994375      0.951056516295      0.309016994375      0.951056516295      0.309016994375
      0.316989529011      0.950178108730      0.311707493797      0.950178108730      0.311707493797      0.950178108730      0.311707493797
      0.319819792663      0.949292089871      0.314395496322      0.949292089871      0.314395496322      0.949292089871      0.314395496322
      0.322650056315      0.948398466815      0.317080980417      0.948398466815      0.317080980417      0.948398466815      0.317080980417
      0.325480319967      0.947497246720      0.319763924571      0.947497246720      0.319763924571      0.947497246720      0.319763924571
      0.328310583618      0.946588436806      0.322444307292      0.946588436806      0.322444307292      0.946588436806      0.322444307292
      0.331140847270      0.945672044352      0.325122107110      0.945672044352      0.325122107110      0.945672044352      0.325122107110
      0.333971110922      0.944748076699      0.327797302573      0.944748076699      0.327797302573      0.944748076699      0.327797302573
      0.336801374574      0.943816541248      0.330469872253      0.943816541248      0.330469872253      0.943816541248      0.330469872253
      0.339631638226      0.942877445461      0.333139794742      0.942877445461      0.333139794742      0.942877445461      0.333139794742
      0.342461901878      0.941930796861      0.335807048652      0.941930796861      0.335807048652      0.941930796861      0.335807048652
      0.345292165530      0.940976603031      0.338471612618      0.940976603031      0.338471612618      0.940976603031      0.338471612618
      0.348122429182      0.940014871614      0.341133465295      0.940014871614      0.341133465295      0.940014871614      0.341133465295
      0.350952692833      0.939045610315      0.343792585360      0.939045610315      0.343792585360      0.939045610315      0.343792585360
      0.353782956485      0.938068826896      0.346448951515      0.938068826896      0.346448951515      0.938068826896      0.346448951515
      0.356613220137      0.937084529183      0.349102542479      0.937084529183      0.349102542479      0.937084529183      0.349102542479
      0.359443483789      0.936092725061      0.351753336996      0.936092725061      0.351753336996      0.936092725061      0.351753336996
      0.362273747441      0.935093422473      0.354401313834      0.935093422473      0.354401313834      0.935093422473      0.354401313834
      0.365104011093      0.934086629426      0.357046451779      0.934086629426      0.357046451779      0.934086629426      0.357046451779
      0.367934274745      0.933072353983      0.359688729645      0.933072353983      0.359688729645      0.933072353983      0.359688729645
      0.370764538397      0.932050604269      0.362328126264      0.932050604269      0.362328126264      0.932050604269      0.362328126264
      0.373594802049      0.931021388469      0.364964620495      0.931021388469      0.364964620495      0.931021388469      0.364964620495
      0.376425065700      0.929984714828      0.367598191218      0.929984714828      0.367598191218      0.929984714828      0.367598191218
      0.379255329352      0.928940591649      0.370228817337      0.928940591649      0.370228817337      0.928940591649      0.370228817337
      0.382085593004      0.927889027297      0.372856477780      0.927889027297      0.372856477780      0.927889027297      0.372856477780
      0.384915856656      0.926830030194      0.375481151499      0.926830030194      0.375481151499      0.926830030194      0.375481151499
      0.387746120308      0.925763608824      0.378102817468      0.925763608824      0.378102817468      0.925763608824      0.378102817468
      0.390576383960      0.924689771729      0.380721454687      0.924689771729      0.380721454687      0.924689771729      0.380721454687
      0.393406647612      0.923608527512      0.383337042180      0.923608527512      0.383337042180      0.923608527512      0.383337042180
